#"+EI Scan (rt: 1.772-1.813 min, 8 scans) 3-METHYLETHCATH-10.D  Subtract "
#Point,X(Thompsons),Y(Counts)
41.0 1991.31665039063
42.0 8951.80078125
43.0 1665.53466796875
44.1 40676.67578125
45.0 1235.751953125
50.0 894.331665039063
51.0 1609.47192382813
52.0 557.331237792969
53.0 424.085693359375
54.0 306.200347900391
55.0 972.827453613281
56.0 4609.42041015625
57.0 762.791137695313
58.1 29.0723934173584
60.9 74.8473663330078
62.0 728.430725097656
63.0 2539.13159179688
64.0 524.317138671875
64.0 305.483306884766
65.0 9137.3525390625
66.0 560.46875
67.0 24.1495666503906
68.0 305.216064453125
69.0 98.6958923339844
70.1 7180.6923828125
71.1 1247.24108886719
72.1 148696.859375
73.1 7566.82568359375
74.0 404.672729492188
75.0 244.17903137207
76.0 244.359359741211
77.0 1179.64111328125
78.0 345.703399658203
79.0 278.214904785156
85.9 64.9447326660156
86.0 36.6403656005859
87.0 166.327377319336
89.0 3029.85107421875
90.0 1283.07250976563
91.0 14508.9384765625
92.0 1522.79077148438
93.0 412.862731933594
102.0 143.948043823242
103.0 520.165283203125
104.0 250.972274780273
105.0 1127.59460449219
106.0 80.88720703125
115.0 738.30810546875
116.0 223.876617431641
117.0 700.564758300781
118.0 452.240661621094
119.0 6714.47021484375
119.9 25.8879642486572
120.0 774.954467773438
127.0 41.0312957763672
127.9 23.2124214172363
128.0 143.074127197266
128.9 20.3169193267822
129.0 149.858215332031
130.0 224.388824462891
131.0 570.220153808594
132.0 151.141448974609
133.0 428.466369628906
144.0 121.215522766113
145.0 48.4240760803223
146.0 955.643676757813
147.0 581.495422363281
148.1 1268.00354003906
149.0 140.215744018555
158.0 217.354904174805
160.1 182.748062133789
161.0 67.0100021362305
162.0 59.2346496582031
162.9 43.3883285522461
163.0 111.649261474609
174.0 151.308135986328
175.0 54.7337188720703
175.1 41.3518524169922
176.0 333.737487792969
190.1 47.9684448242188
191.0 23.7843227386475
207.0 34.0862731933594
