#"+EI Scan (rt: 1.772-1.813 min, 8 scans) 3-METHYLETHCATH-2.D  Subtract "
#Point,X(Thompsons),Y(Counts)
41.0 2171.66455078125
42.0 9216.201171875
43.0 1730.74572753906
44.1 44578.7734375
45.1 1337.16723632813
50.0 931.364135742188
51.0 1795.224609375
52.0 538.174987792969
53.0 437.432037353516
54.0 346.491821289063
55.0 1040.04724121094
56.0 4989.77978515625
57.0 804.067504882813
57.9 20.8307800292969
61.0 72.5604400634766
62.0 747.238647460938
63.0 2783.46240234375
64.0 840.270141601563
65.0 9657.9541015625
65.9 34.5264358520508
66.0 550.041259765625
68.0 323.893371582031
69.0 146.784927368164
70.1 7383.333984375
71.1 1334.01257324219
72.1 159355.359375
73.1 8109.947265625
74.0 403.803131103516
75.0 331.884033203125
76.0 229.484329223633
77.0 1243.51293945313
78.0 353.059143066406
79.0 218.902816772461
85.9 22.1996917724609
86.0 110.108116149902
87.0 146.319915771484
88.1 22.3813819885254
89.0 3396.59057617188
90.0 1377.24072265625
91.0 15323.2978515625
92.0 1574.65307617188
93.0 410.429779052734
102.0 120.570465087891
103.0 533.233764648438
104.0 246.696563720703
105.0 1197.03503417969
106.0 120.476638793945
115.0 846.781188964844
116.0 244.534774780273
117.0 749.980163574219
118.0 477.452026367188
119.0 7095.4296875
120.0 876.290466308594
120.9 22.9351673126221
127.0 46.2319641113281
128.0 168.722091674805
129.0 174.043121337891
130.0 227.943542480469
131.0 557.531188964844
132.0 227.443389892578
133.0 441.599029541016
134.0 22.4875144958496
143.0 19.1557807922363
144.0 140.497634887695
145.0 56.1701049804688
146.0 1012.58087158203
147.0 574.324157714844
148.1 1357.45043945313
149.0 131.119583129883
158.1 223.241317749023
160.0 191.956909179688
161.0 76.8818664550781
162.1 41.2511711120605
162.9 127.909088134766
163.0 31.792875289917
172.0 22.1131744384766
174.0 111.295486450195
175.1 114.610153198242
176.1 357.068115234375
190.0 66.8613891601563
191.0 44.0059051513672
207.0 27.6988964080811
