#"+EI Scan (rt: 1.772-1.813 min, 8 scans) 3-METHYLETHCATH-5.D  Subtract "
#Point,X(Thompsons),Y(Counts)
41.0 2017.54479980469
42.0 8894.126953125
43.0 1723.73181152344
44.1 41563.140625
45.0 1235.34326171875
50.0 913.943359375
51.0 1640.17590332031
52.0 522.284362792969
53.0 429.142364501953
54.0 354.654876708984
55.0 994.876892089844
56.1 4790.36328125
57.0 792.459899902344
58.0 39.8812789916992
58.9 20.196834564209
61.0 70.6936187744141
62.0 720.455444335938
63.0 2683.1201171875
64.0 824.421020507813
65.0 9317.0751953125
66.0 559.678100585938
67.0 20.8602390289307
68.0 312.753540039063
69.0 159.375762939453
70.1 7154.5068359375
71.1 1321.0927734375
72.1 151971.5625
73.1 7642.93310546875
74.0 406.046813964844
75.0 296.915222167969
76.0 254.700500488281
77.0 1185.69555664063
78.0 373.281646728516
79.0 58.7379989624023
79.1 181.833877563477
85.9 74.0810852050781
86.9 148.217269897461
87.9 21.1486587524414
89.0 3106.86206054688
90.0 1358.87780761719
91.0 14733.357421875
92.0 1577.49658203125
93.0 396.837463378906
102.0 120.067245483398
103.0 458.461303710938
104.0 290.55712890625
105.0 1169.77062988281
106.0 106.20433807373
115.0 805.976318359375
116.0 231.739807128906
117.0 751.476867675781
118.0 446.734344482422
119.0 6764.77978515625
120.0 841.969482421875
121.0 38.6178092956543
128.0 154.964050292969
129.0 152.367095947266
130.0 245.600982666016
131.0 575.585144042969
132.0 187.951217651367
133.0 417.690979003906
134.0 38.7105941772461
144.0 120.826545715332
145.0 63.0868492126465
146.0 918.685791015625
147.0 578.341796875
148.1 1309.89343261719
149.0 92.2552947998047
158.0 226.974945068359
160.0 228.284408569336
161.0 64.6599273681641
161.9 23.1378479003906
162.9 175.328277587891
174.0 93.7987442016602
175.1 114.489883422852
176.1 361.229248046875
190.1 73.108528137207
